   time(s)          q_sum         qs_sum          h_sum         hs_sum        qcc_sum        qcf_sum         cc_sum         cf_sum         dz_sum        fsr_sum
        60   0.00000E+000   0.22445E-003   0.75156E-001   0.13545E+005   0.00000E+000   0.00000E+000   0.00000E+000   0.00000E+000   0.33862E+005   0.21567E-003
       120   0.00000E+000   0.45271E-003   0.21185E+000   0.13545E+005   0.00000E+000   0.00000E+000   0.00000E+000   0.00000E+000   0.33862E+005   0.85561E-003
       180   0.00000E+000   0.68096E-003   0.11802E+005   0.98804E+004   0.00000E+000   0.00000E+000   0.34176E+004   0.14647E+004   0.24701E+005   0.19198E-002
       240   0.00000E+000   0.90921E-003   0.15952E+005   0.80190E+004   0.00000E+000   0.00000E+000   0.39200E+004   0.21516E+004   0.22303E+005   0.34083E-002
       300   0.00000E+000   0.11375E-002   0.20706E+005   0.60509E+004   0.00000E+000   0.00000E+000   0.46806E+004   0.28966E+004   0.19393E+005   0.53210E-002
       360   0.00000E+000   0.13657E-002   0.20580E+005   0.53043E+004   0.00000E+000   0.00000E+000   0.37344E+004   0.30820E+004   0.20251E+005   0.76580E-002
       420   0.00000E+000   0.15940E-002   0.21114E+005   0.49271E+004   0.00000E+000   0.00000E+000   0.36087E+004   0.32229E+004   0.20094E+005   0.10419E-001
       480   0.30443E+001   0.18222E-002   0.21602E+005   0.46374E+004   0.17062E+000   0.53134E+000   0.35648E+004   0.33338E+004   0.19893E+005   0.13605E-001
       540   0.11494E+004   0.20504E-002   0.20320E+005   0.45692E+004   0.65814E+002   0.20134E+003   0.33149E+004   0.31539E+004   0.20119E+005   0.17215E-001
       600   0.22374E+004   0.22787E-002   0.19040E+005   0.45388E+004   0.12826E+003   0.39252E+003   0.30804E+004   0.29685E+004   0.20360E+005   0.21249E-001
       660   0.32366E+004   0.25069E-002   0.17861E+005   0.45123E+004   0.18552E+003   0.56912E+003   0.28699E+004   0.27933E+004   0.20582E+005   0.25491E-001
       720   0.40852E+004   0.27351E-002   0.16859E+005   0.44893E+004   0.23418E+003   0.72053E+003   0.26925E+004   0.26417E+004   0.20770E+005   0.29734E-001
       780   0.48111E+004   0.29634E-002   0.16002E+005   0.44678E+004   0.27576E+003   0.85062E+003   0.25407E+004   0.25106E+004   0.20932E+005   0.33977E-001
       840   0.54970E+004   0.31916E-002   0.15193E+005   0.44508E+004   0.31500E+003   0.97360E+003   0.24020E+004   0.23856E+004   0.21081E+005   0.38219E-001
       900   0.61470E+004   0.34198E-002   0.14429E+005   0.44373E+004   0.35214E+003   0.10902E+004   0.22755E+004   0.22664E+004   0.21217E+005   0.42462E-001
       960   0.67354E+004   0.36481E-002   0.13737E+005   0.44264E+004   0.38574E+003   0.11958E+004   0.21629E+004   0.21579E+004   0.21338E+005   0.46705E-001
      1020   0.72612E+004   0.38763E-002   0.13118E+005   0.44175E+004   0.41576E+003   0.12904E+004   0.20627E+004   0.20604E+004   0.21447E+005   0.50948E-001
      1080   0.77319E+004   0.41045E-002   0.12563E+005   0.44103E+004   0.44262E+003   0.13752E+004   0.19731E+004   0.19728E+004   0.21544E+005   0.55190E-001
      1140   0.81556E+004   0.43327E-002   0.12064E+005   0.44029E+004   0.46679E+003   0.14516E+004   0.18929E+004   0.18939E+004   0.21631E+005   0.59433E-001
      1200   0.85396E+004   0.45610E-002   0.11613E+005   0.43964E+004   0.48868E+003   0.15208E+004   0.18204E+004   0.18224E+004   0.21709E+005   0.63676E-001
      1260   0.88897E+004   0.47892E-002   0.11200E+005   0.43908E+004   0.50861E+003   0.15838E+004   0.17544E+004   0.17571E+004   0.21781E+005   0.67918E-001
      1320   0.92105E+004   0.50174E-002   0.10822E+005   0.43859E+004   0.52684E+003   0.16415E+004   0.16940E+004   0.16974E+004   0.21847E+005   0.72161E-001
      1380   0.95053E+004   0.52456E-002   0.10475E+005   0.43814E+004   0.54359E+003   0.16944E+004   0.16385E+004   0.16425E+004   0.21908E+005   0.76404E-001
      1440   0.97774E+004   0.54738E-002   0.10155E+005   0.43769E+004   0.55904E+003   0.17433E+004   0.15875E+004   0.15918E+004   0.21963E+005   0.80646E-001
      1500   0.10029E+005   0.57021E-002   0.98579E+004   0.43729E+004   0.57335E+003   0.17886E+004   0.15401E+004   0.15448E+004   0.22015E+005   0.84889E-001
      1560   0.10263E+005   0.59303E-002   0.95828E+004   0.43689E+004   0.58665E+003   0.18308E+004   0.14962E+004   0.15010E+004   0.22063E+005   0.89132E-001
      1620   0.10481E+005   0.61585E-002   0.93272E+004   0.43647E+004   0.59907E+003   0.18703E+004   0.14553E+004   0.14601E+004   0.22107E+005   0.93374E-001
      1680   0.10685E+005   0.63867E-002   0.90888E+004   0.43606E+004   0.61069E+003   0.19073E+004   0.14171E+004   0.14217E+004   0.22149E+005   0.97617E-001
      1740   0.10875E+005   0.66149E-002   0.88654E+004   0.43567E+004   0.62160E+003   0.19422E+004   0.13813E+004   0.13856E+004   0.22188E+005   0.10186E+000
      1800   0.11054E+005   0.68431E-002   0.86556E+004   0.43531E+004   0.63188E+003   0.19751E+004   0.13476E+004   0.13515E+004   0.22224E+005   0.10610E+000
      1860   0.11223E+005   0.70713E-002   0.84579E+004   0.43498E+004   0.64157E+003   0.20062E+004   0.13158E+004   0.13192E+004   0.22259E+005   0.11035E+000
      1920   0.11382E+005   0.72995E-002   0.82712E+004   0.43466E+004   0.65074E+003   0.20357E+004   0.12858E+004   0.12886E+004   0.22291E+005   0.11459E+000
      1980   0.11533E+005   0.75277E-002   0.80946E+004   0.43437E+004   0.65942E+003   0.20637E+004   0.12574E+004   0.12596E+004   0.22322E+005   0.11883E+000
      2040   0.11676E+005   0.77560E-002   0.79273E+004   0.43409E+004   0.66766E+003   0.20903E+004   0.12304E+004   0.12321E+004   0.22351E+005   0.12307E+000
      2100   0.11811E+005   0.79842E-002   0.77685E+004   0.43383E+004   0.67549E+003   0.21156E+004   0.12048E+004   0.12059E+004   0.22379E+005   0.12732E+000
      2160   0.11940E+005   0.82124E-002   0.76175E+004   0.43359E+004   0.68293E+003   0.21396E+004   0.11805E+004   0.11810E+004   0.22406E+005   0.13156E+000
      2220   0.12063E+005   0.84406E-002   0.74737E+004   0.43336E+004   0.69001E+003   0.21626E+004   0.11573E+004   0.11572E+004   0.22431E+005   0.13580E+000
      2280   0.12180E+005   0.86688E-002   0.73367E+004   0.43314E+004   0.69677E+003   0.21844E+004   0.11352E+004   0.11346E+004   0.22455E+005   0.14004E+000
      2340   0.12291E+005   0.88970E-002   0.72059E+004   0.43293E+004   0.70322E+003   0.22053E+004   0.11142E+004   0.11130E+004   0.22477E+005   0.14429E+000
      2400   0.12398E+005   0.91252E-002   0.70808E+004   0.43273E+004   0.70938E+003   0.22252E+004   0.10941E+004   0.10924E+004   0.22499E+005   0.14853E+000
      2460   0.12500E+005   0.93534E-002   0.69611E+004   0.43254E+004   0.71528E+003   0.22442E+004   0.10748E+004   0.10726E+004   0.22520E+005   0.15277E+000
      2520   0.12599E+005   0.95815E-002   0.68464E+004   0.43236E+004   0.72093E+003   0.22625E+004   0.10564E+004   0.10537E+004   0.22540E+005   0.15701E+000
      2580   0.12693E+005   0.98097E-002   0.67364E+004   0.43219E+004   0.72635E+003   0.22800E+004   0.10387E+004   0.10356E+004   0.22559E+005   0.16126E+000
      2640   0.12783E+005   0.10038E-001   0.66307E+004   0.43202E+004   0.73156E+003   0.22968E+004   0.10218E+004   0.10183E+004   0.22577E+005   0.16550E+000
      2700   0.12870E+005   0.10266E-001   0.65290E+004   0.43187E+004   0.73656E+003   0.23129E+004   0.10055E+004   0.10016E+004   0.22595E+005   0.16974E+000
      2760   0.12954E+005   0.10494E-001   0.64312E+004   0.43171E+004   0.74137E+003   0.23284E+004   0.98987E+003   0.98558E+003   0.22612E+005   0.17399E+000
      2820   0.13034E+005   0.10723E-001   0.63370E+004   0.43157E+004   0.74600E+003   0.23433E+004   0.97480E+003   0.97016E+003   0.22628E+005   0.17823E+000
      2880   0.13112E+005   0.10951E-001   0.62462E+004   0.43143E+004   0.75046E+003   0.23576E+004   0.96029E+003   0.95531E+003   0.22644E+005   0.18247E+000
      2940   0.13187E+005   0.11179E-001   0.61585E+004   0.43130E+004   0.75477E+003   0.23715E+004   0.94630E+003   0.94100E+003   0.22659E+005   0.18671E+000
      3000   0.13260E+005   0.11407E-001   0.60738E+004   0.43117E+004   0.75892E+003   0.23848E+004   0.93281E+003   0.92720E+003   0.22673E+005   0.19096E+000
